**** COMMENT ****

**** INPUTS ****
kVp [kV] hvMIN [keV] Dhv [keV]
120  12  1
Angle [deg.]
30
t_AIR t_BE t_AL t_CU t_SN t_W t_Ta t_Wa [mm]
1000  0.8  1  0.11  0  0  1  0
Nf P
0.68  0.33
****CALCULATED OUTPUTS ****
Brem[uGy/mAs@1m] Char[uGy/mAs@1m]
0.0654789  0.0259505
HVL1[cm AL] HVL2[cm AL] HVL1[cmCu] HVL2[cmCu] MeanE[keV] EffEAl[keV] EffECu[keV]
1.052696  1.076469  0.0646053  0.0728668  68.49218  66.53244  66.85146
**** CALCULATED SPECTRUM ****
Energy[keV]  N[keV cm^2 mAs]^-1 @ 1 meter
12  1.141796e-171
13  5.839961e-139
14  7.071420e-114
15  7.393349e-95
16  6.217908e-79
17  1.428846e-66
18  2.008830e-56
19  3.589979e-48
20  2.731058e-41
21  1.501189e-35
22  1.021451e-30
23  1.425621e-26
24  4.184777e-23
25  4.265049e-20
26  1.537632e-17
27  2.733090e-15
28  2.447799e-13
29  1.282187e-11
30  4.001811e-10
31  8.786921e-9
32  1.611203e-7
33  1.767599e-6
34  0.0000163
35  0.000106
36  0.0006855
37  0.0031537
38  0.0144301
39  0.0469994
40  0.1524765
41  0.4844855
42  1.298413
43  3.191031
44  7.320028
45  15.39044
46  31.27079
47  58.28567
48  104.9913
49  179.4749
50  296.3885
51  472.9223
52  728.1606
53  1084.961
54  1560.991
55  2209.154
56  3017.083
57  4052.636
58  16855.27
59  33128.77
60  8714.7
61  10925.64
62  13461.44
63  16308.44
64  19433.83
65  23129.11
66  27074.76
67  82540.07
68  0.0126829
69  0.0347751
70  0.042818
71  0.081324
72  0.1422067
73  0.2486077
74  0.4200363
75  0.6863526
76  1.101698
77  1.739552
78  2.654363
79  3.982097
80  5.872177
81  8.510935
82  12.13421
83  16.71226
84  23.01833
85  31.13698
86  41.42144
87  54.17633
88  70.77718
89  90.9187
90  114.7336
91  142.3118
92  176.4123
93  218.4494
94  265.8928
95  317.8954
96  379.7897
97  445.4582
98  522.1964
99  611.2134
100  702.5028
101  806.6166
102  908.0681
103  1021.217
104  1145.503
105  1260.32
106  1383.566
107  1511.969
108  1648.873
109  1756.842
110  1865.331
111  1967.546
112  2024.372
113  2067.063
114  2064.011
115  2037.887
116  1976.17
117  1841.633
118  1507.926
119  820.4041
120  0
